# Vertex id, X, Y, Z_meter
0 8.87 671.42 275.30
1 29.58 669.69 275.30
2 51.25 670.02 275.30
3 72.04 668.53 275.30
4 93.74 667.44 275.30
5 114.36 665.37 275.30
6 136.41 664.25 275.30
7 156.62 661.16 275.30
8 178.25 659.34 275.30
9 198.74 658.23 275.30
10 220.10 654.19 275.30
11 240.96 651.39 275.30
12 261.46 647.76 275.30
13 282.37 644.85 275.30
14 303.76 641.71 275.30
15 324.99 637.01 275.30
16 347.18 633.86 275.30
17 369.83 630.91 275.30
18 394.30 630.83 275.30
19 418.16 630.45 275.30
20 445.16 632.36 275.30
21 471.81 642.87 275.30
22 494.03 643.34 275.30
23 519.16 644.74 275.30
24 547.83 664.16 275.30
25 569.72 665.85 275.30
26 588.35 665.17 275.30
27 609.10 665.96 275.30
28 630.98 667.97 275.30
29 653.35 669.96 275.30
30 675.96 672.06 275.30
31 697.77 671.23 275.30
32 719.42 677.23 275.30
33 9.75 649.67 275.30
34 31.44 648.79 275.30
35 52.14 648.06 275.30
36 73.80 647.48 275.30
37 94.41 645.56 275.30
38 116.47 644.65 275.30
39 136.87 641.82 275.30
40 158.55 640.51 275.30
41 179.01 637.38 275.30
42 200.46 637.16 275.30
43 221.50 632.99 275.30
44 241.99 630.01 275.30
45 262.80 626.95 275.30
46 283.92 624.44 275.30
47 304.85 621.05 275.30
48 326.59 617.25 275.30
49 348.29 614.02 275.30
50 371.92 612.78 275.30
51 395.22 611.96 275.30
52 419.64 612.56 275.30
53 446.83 617.44 275.30
54 470.90 622.68 275.30
55 493.40 622.80 275.30
56 521.34 631.50 275.30
57 546.33 644.07 275.30
58 565.43 642.19 275.30
59 586.27 643.28 275.30
60 608.10 644.95 275.30
61 630.64 647.85 275.30
62 653.06 649.84 275.30
63 674.63 650.85 275.30
64 696.35 650.04 275.30
65 718.80 656.94 275.30
66 11.60 628.78 275.30
67 32.25 627.00 275.30
68 53.86 627.12 275.30
69 74.44 625.55 275.30
70 96.45 624.77 275.30
71 117.07 622.25 275.30
72 138.73 621.08 275.30
73 159.30 618.42 275.30
74 180.79 616.42 275.30
75 201.89 615.72 275.30
76 222.57 611.38 275.30
77 243.29 608.99 275.30
78 264.39 606.22 275.30
79 285.09 603.50 275.30
80 306.41 600.72 275.30
81 327.54 596.68 275.30
82 350.39 595.38 275.30
83 373.10 593.64 275.30
84 396.20 592.82 275.30
85 421.58 596.10 275.30
86 447.14 599.71 275.30
87 470.23 602.23 275.30
88 494.52 604.74 275.30
89 521.29 616.44 275.30
90 543.55 619.96 275.30
91 563.76 620.60 275.30
92 585.61 622.67 275.30
93 607.57 624.56 275.30
94 630.25 627.80 275.30
95 651.96 628.83 275.30
96 673.21 629.56 275.30
97 695.80 629.79 275.30
98 717.81 636.20 275.30
99 12.45 606.96 275.30
100 33.93 606.15 275.30
101 54.53 605.14 275.30
102 76.46 604.77 275.30
103 97.05 602.59 275.30
104 118.82 601.42 275.30
105 139.53 598.93 275.30
106 160.95 597.63 275.30
107 182.12 595.11 275.30
108 202.97 594.18 275.30
109 223.71 590.37 275.30
110 244.90 588.16 275.30
111 265.48 585.53 275.30
112 286.65 583.27 275.30
113 307.26 580.00 275.30
114 329.49 577.75 275.30
115 351.65 576.02 275.30
116 374.11 574.37 275.30
117 397.95 575.14 275.30
118 422.71 579.05 275.30
119 447.11 580.65 275.30
120 469.91 582.18 275.30
121 496.16 589.26 275.30
122 520.21 596.47 275.30
123 541.19 597.61 275.30
124 563.02 599.91 275.30
125 584.91 602.06 275.30
126 607.53 604.74 275.30
127 629.20 606.95 275.30
128 650.44 607.40 275.30
129 672.56 609.02 275.30
130 694.97 609.34 275.30
131 716.39 614.75 275.30
132 14.21 586.00 275.30
133 34.54 584.26 275.30
134 56.46 584.44 275.30
135 77.08 582.64 275.30
136 98.89 581.62 275.30
137 119.57 579.39 275.30
138 141.10 578.22 275.30
139 162.18 576.33 275.30
140 183.22 573.68 275.30
141 204.13 572.92 275.30
142 225.21 569.85 275.30
143 245.88 567.56 275.30
144 266.96 565.43 275.30
145 287.50 562.62 275.30
146 309.01 560.68 275.30
147 330.91 558.56 275.30
148 352.65 556.63 275.30
149 375.55 555.99 275.30
150 399.55 557.65 275.30
151 423.45 560.98 275.30
152 446.63 560.64 275.30
153 471.31 564.89 275.30
154 496.24 571.85 275.30
155 518.61 574.84 275.30
156 540.12 576.52 275.30
157 562.30 579.34 275.30
158 584.79 582.17 275.30
159 606.64 584.13 275.30
160 627.84 585.61 275.30
161 649.71 586.73 275.30
162 671.70 588.38 275.30
163 693.70 588.41 275.30
164 714.82 593.01 275.30
165 14.73 564.21 275.30
166 36.55 563.59 275.30
167 57.16 562.27 275.30
168 78.93 561.64 275.30
169 99.68 559.58 275.30
170 121.23 558.49 275.30
171 142.32 556.67 275.30
172 163.50 554.86 275.30
173 184.25 552.54 275.30
174 205.57 552.11 275.30
175 226.36 548.69 275.30
176 247.47 546.88 275.30
177 267.96 544.41 275.30
178 289.14 542.84 275.30
179 310.60 541.33 275.30
180 331.87 538.58 275.30
181 353.97 537.32 275.30
182 377.14 537.63 275.30
183 400.91 539.85 275.30
184 423.63 541.58 275.30
185 447.25 541.81 275.30
186 471.96 547.37 275.30
187 495.64 552.01 275.30
188 517.49 553.72 275.30
189 539.57 556.15 275.30
190 561.81 559.14 275.30
191 583.85 561.35 275.30
192 605.45 562.97 275.30
193 626.99 564.60 275.30
194 648.78 565.89 275.30
195 670.43 567.26 275.30
196 692.19 567.16 275.30
197 713.36 571.43 275.30
198 16.65 543.66 275.30
199 37.29 541.59 275.30
200 59.01 541.31 275.30
201 79.75 539.66 275.30
202 101.29 538.64 275.30
203 122.41 536.87 275.30
204 143.72 535.15 275.30
205 164.71 533.23 275.30
206 185.86 531.41 275.30
207 206.82 530.60 275.30
208 228.00 527.85 275.30
209 248.51 525.55 275.30
210 269.59 523.83 275.30
211 290.76 522.65 275.30
212 311.75 520.85 275.30
213 333.28 518.77 275.30
214 355.46 518.19 275.30
215 378.64 519.26 275.30
216 401.30 520.36 275.30
217 424.08 522.17 275.30
218 448.34 523.74 275.30
219 472.03 528.69 275.30
220 494.70 531.31 275.30
221 516.69 533.06 275.30
222 539.09 535.99 275.30
223 561.29 538.80 275.30
224 582.66 540.21 275.30
225 604.54 542.13 275.30
226 626.20 543.87 275.30
227 647.55 544.81 275.30
228 669.01 545.96 275.30
229 690.45 545.69 275.30
230 712.05 550.13 275.30
231 17.73 521.28 275.30
232 39.32 520.41 275.30
233 60.03 519.07 275.30
234 81.54 518.28 275.30
235 102.62 516.53 275.30
236 124.15 514.93 275.30
237 145.01 513.27 275.30
238 166.40 511.67 275.30
239 187.27 509.62 275.30
240 208.64 508.92 275.30
241 229.27 505.75 275.30
242 250.25 504.36 275.30
243 271.34 502.83 275.30
244 292.05 501.39 275.30
245 313.14 499.88 275.30
246 334.68 498.32 275.30
247 357.19 499.04 275.30
248 379.31 499.24 275.30
249 401.71 500.34 275.30
250 424.80 502.83 275.30
251 448.69 504.59 275.30
252 471.72 508.66 275.30
253 493.45 509.88 275.30
254 516.09 512.50 275.30
255 538.42 515.34 275.30
256 559.99 517.34 275.30
257 581.94 519.36 275.30
258 603.23 520.59 275.30
259 624.78 522.23 275.30
260 646.18 523.28 275.30
261 667.17 524.06 275.30
262 688.98 524.30 275.30
263 710.62 528.54 275.30
264 19.53 500.36 275.30
265 40.06 498.62 275.30
266 61.62 498.00 275.30
267 82.64 496.56 275.30
268 104.12 495.23 275.30
269 125.12 493.35 275.30
270 146.64 491.92 275.30
271 167.46 490.31 275.30
272 188.87 488.57 275.30
273 209.72 487.39 275.30
274 230.70 485.02 275.30
275 251.89 483.59 275.30
276 272.49 482.24 275.30
277 293.39 481.06 275.30
278 314.37 479.65 275.30
279 336.35 479.35 275.30
280 358.01 479.25 275.30
281 379.96 479.62 275.30
282 402.45 481.21 275.30
283 425.40 483.82 275.30
284 448.85 485.44 275.30
285 470.73 487.74 275.30
286 493.12 489.70 275.30
287 515.45 492.25 275.30
288 537.33 494.36 275.30
289 559.36 496.84 275.30
290 580.75 498.16 275.30
291 602.25 499.59 275.30
292 623.43 501.00 275.30
293 644.41 501.62 275.30
294 665.79 502.76 275.30
295 687.89 503.53 275.30
296 709.16 507.06 275.30
297 20.35 478.47 275.30
298 41.62 477.66 275.30
299 62.65 476.38 275.30
300 84.14 475.32 275.30
301 105.22 473.54 275.30
302 126.53 472.28 275.30
303 147.62 470.63 275.30
304 168.95 469.28 275.30
305 189.97 467.14 275.30
306 211.15 466.41 275.30
307 232.21 464.55 275.30
308 252.94 463.09 275.30
309 273.73 461.95 275.30
310 294.61 460.79 275.30
311 315.97 460.30 275.30
312 337.39 459.83 275.30
313 358.74 459.59 275.30
314 380.72 460.45 275.30
315 403.24 462.19 275.30
316 425.80 464.58 275.30
317 448.25 465.19 275.30
318 470.35 467.50 275.30
319 492.64 469.65 275.30
320 514.60 471.58 275.30
321 536.46 473.54 275.30
322 558.32 475.88 275.30
323 579.68 477.10 275.30
324 600.93 478.46 275.30
325 621.79 479.38 275.30
326 642.99 480.25 275.30
327 664.62 481.74 275.30
328 686.58 482.57 275.30
329 707.71 485.47 275.30
330 21.81 457.62 275.30
331 42.69 456.06 275.30
332 64.19 455.08 275.30
333 85.26 453.61 275.30
334 106.77 452.24 275.30
335 127.72 450.70 275.30
336 149.17 449.30 275.30
337 170.28 447.80 275.30
338 191.27 446.26 275.30
339 212.63 445.63 275.30
340 233.45 443.48 275.30
341 254.29 442.19 275.30
342 275.09 441.30 275.30
343 296.16 441.02 275.30
344 317.21 440.61 275.30
345 338.09 439.60 275.30
346 359.51 439.70 275.30
347 381.57 441.03 275.30
348 403.90 442.95 275.30
349 425.77 444.67 275.30
350 447.61 444.70 275.30
351 469.79 447.07 275.30
352 491.96 449.12 275.30
353 513.83 450.85 275.30
354 535.73 452.99 275.30
355 556.92 454.54 275.30
356 578.19 455.63 275.30
357 599.41 456.96 275.30
358 620.28 457.70 275.30
359 641.72 459.04 275.30
360 663.26 460.51 275.30
361 685.20 461.44 275.30
362 706.50 464.19 275.30
363 22.90 436.02 275.30
364 44.30 434.92 275.30
365 65.34 433.41 275.30
366 86.83 432.37 275.30
367 107.78 430.71 275.30
368 129.26 429.43 275.30
369 150.53 427.74 275.30
370 171.76 426.44 275.30
371 192.90 425.16 275.30
372 213.97 424.20 275.30
373 234.90 422.36 275.30
374 255.69 421.22 275.30
375 276.63 420.84 275.30
376 297.46 420.51 275.30
377 318.09 419.85 275.30
378 339.02 419.33 275.30
379 360.40 419.82 275.30
380 382.18 421.27 275.30
381 403.88 422.71 275.30
382 425.31 423.92 275.30
383 447.34 424.45 275.30
384 469.13 426.47 275.30
385 491.10 428.37 275.30
386 512.97 430.13 275.30
387 534.41 431.77 275.30
388 555.75 433.39 275.30
389 576.65 434.12 275.30
390 597.86 435.44 275.30
391 619.14 436.60 275.30
392 640.37 437.83 275.30
393 661.94 439.31 275.30
394 683.76 440.27 275.30
395 705.07 442.73 275.30
396 24.48 414.90 275.30
397 45.47 413.29 275.30
398 66.93 412.18 275.30
399 87.90 410.68 275.30
400 109.30 409.33 275.30
401 130.75 407.89 275.30
402 151.87 406.52 275.30
403 173.25 405.29 275.30
404 194.28 403.76 275.30
405 215.49 402.72 275.30
406 236.35 401.12 275.30
407 257.21 400.48 275.30
408 277.99 399.97 275.30
409 298.46 399.29 275.30
410 318.97 398.81 275.30
411 339.88 398.81 275.30
412 361.17 399.80 275.30
413 382.31 400.79 275.30
414 403.49 401.82 275.30
415 424.82 403.06 275.30
416 446.64 403.74 275.30
417 468.55 405.93 275.30
418 490.00 407.31 275.30
419 511.70 408.95 275.30
420 533.16 410.57 275.30
421 554.20 411.87 275.30
422 575.45 412.96 275.30
423 596.35 413.93 275.30
424 617.76 415.24 275.30
425 639.20 416.68 275.30
426 660.57 418.05 275.30
427 682.31 419.05 275.30
428 703.69 421.31 275.30
429 25.67 393.25 275.30
430 47.10 392.04 275.30
431 68.08 390.38 275.30
432 89.45 389.22 275.30
433 110.82 387.89 275.30
434 132.12 386.45 275.30
435 153.46 385.12 275.30
436 174.65 383.74 275.30
437 195.78 382.43 275.30
438 216.96 381.31 275.30
439 237.85 380.09 275.30
440 258.59 379.44 275.30
441 279.06 378.77 275.30
442 299.37 378.23 275.30
443 319.79 377.96 275.30
444 340.54 378.31 275.30
445 361.37 379.11 275.30
446 382.13 379.89 275.30
447 403.03 380.89 275.30
448 424.07 381.94 275.30
449 445.82 382.92 275.30
450 467.45 384.79 275.30
451 488.91 386.16 275.30
452 510.26 387.60 275.30
453 531.58 388.99 275.30
454 552.74 390.31 275.30
455 573.93 391.40 275.30
456 595.19 392.68 275.30
457 616.43 393.94 275.30
458 637.83 395.34 275.30
459 659.13 396.60 275.30
460 680.91 397.84 275.30
461 702.24 399.84 275.30
462 27.33 371.98 275.30
463 48.29 370.29 275.30
464 69.53 369.11 275.30
465 90.93 367.84 275.30
466 112.28 366.34 275.30
467 133.66 364.97 275.30
468 154.94 363.59 275.30
469 176.15 362.29 275.30
470 197.26 361.04 275.30
471 218.49 359.98 275.30
472 239.21 358.93 275.30
473 259.68 358.17 275.30
474 279.95 357.54 275.30
475 300.19 357.20 275.30
476 320.47 357.21 275.30
477 340.81 357.51 275.30
478 361.17 358.02 275.30
479 381.67 358.73 275.30
480 402.36 359.68 275.30
481 423.24 360.72 275.30
482 444.80 361.92 275.30
483 466.18 363.43 275.30
484 487.46 364.69 275.30
485 508.78 366.09 275.30
486 530.04 367.37 275.30
487 551.23 368.69 275.30
488 572.51 369.90 275.30
489 593.81 371.24 275.30
490 615.11 372.60 275.30
491 636.41 373.97 275.30
492 657.82 375.36 275.30
493 679.42 376.55 275.30
494 700.69 378.23 275.30
495 28.76 349.94 275.30
496 49.84 348.72 275.30
497 71.19 347.37 275.30
498 92.60 345.95 275.30
499 114.00 344.57 275.30
500 135.30 343.13 275.30
501 156.58 341.80 275.30
502 177.79 340.53 275.30
503 198.94 339.43 275.30
504 219.99 338.16 275.30
505 240.38 337.19 275.30
506 260.64 336.42 275.30
507 280.82 335.90 275.30
508 300.88 335.63 275.30
509 320.75 335.61 275.30
510 340.62 335.86 275.30
511 360.67 336.35 275.30
512 380.95 337.06 275.30
513 401.43 337.96 275.30
514 422.15 339.05 275.30
515 443.44 340.36 275.30
516 464.63 341.61 275.30
517 485.92 342.95 275.30
518 507.19 344.28 275.30
519 528.51 345.65 275.30
520 549.65 346.81 275.30
521 570.96 348.14 275.30
522 592.25 349.46 275.30
523 613.54 350.83 275.30
524 634.83 352.19 275.30
525 656.21 353.59 275.30
526 677.98 355.15 275.30
527 699.04 356.38 275.30
528 30.01 328.69 275.30
529 51.08 327.46 275.30
530 72.57 326.10 275.30
531 94.02 324.69 275.30
532 115.41 323.29 275.30
533 136.67 321.93 275.30
534 157.90 320.62 275.30
535 179.06 319.35 275.30
536 200.18 318.12 275.30
537 221.25 316.86 275.30
538 241.27 315.98 275.30
539 261.38 315.26 275.30
540 281.40 314.66 275.30
541 301.26 314.23 275.30
542 320.78 314.18 275.30
543 340.32 314.59 275.30
544 360.15 315.19 275.30
545 380.24 315.88 275.30
546 400.54 316.67 275.30
547 421.06 317.71 275.30
548 442.12 319.17 275.30
549 463.37 320.44 275.30
550 484.58 321.71 275.30
551 505.85 323.03 275.30
552 527.14 324.37 275.30
553 548.48 325.77 275.30
554 569.62 326.94 275.30
555 590.91 328.24 275.30
556 612.17 329.53 275.30
557 633.46 330.90 275.30
558 654.79 332.30 275.30
559 676.42 333.89 275.30
560 697.80 335.13 275.30
