# Vertex id, X, Y, Z_meter
0 24.10 654.87 499.79
1 44.21 654.41 499.79
2 64.58 654.48 499.79
3 84.72 654.07 499.79
4 105.05 653.29 499.79
5 125.02 652.25 499.79
6 145.52 652.55 499.79
7 165.48 652.82 499.79
8 186.04 653.47 499.79
9 207.02 656.91 499.79
10 228.23 656.47 499.79
11 249.99 656.24 499.79
12 271.10 654.39 499.79
13 292.55 652.78 499.79
14 313.82 650.58 499.79
15 334.92 648.27 499.79
16 355.86 646.33 499.79
17 375.78 643.22 499.79
18 396.02 640.98 499.79
19 416.23 637.95 499.79
20 436.69 633.30 499.79
21 457.65 630.83 499.79
22 478.26 628.49 499.79
23 500.45 628.45 499.79
24 523.01 631.19 499.79
25 545.42 635.39 499.79
26 567.48 639.13 499.79
27 589.08 641.60 499.79
28 610.38 643.43 499.79
29 631.58 644.83 499.79
30 653.25 646.76 499.79
31 674.53 647.57 499.79
32 695.01 649.50 499.79
33 24.37 634.41 499.79
34 44.72 634.14 499.79
35 64.84 633.95 499.79
36 85.19 633.75 499.79
37 105.20 632.91 499.79
38 125.60 632.20 499.79
39 145.58 631.83 499.79
40 165.99 632.73 499.79
41 186.26 632.87 499.79
42 207.36 636.32 499.79
43 228.85 635.93 499.79
44 249.98 634.92 499.79
45 271.47 633.69 499.79
46 293.06 631.94 499.79
47 314.37 629.81 499.79
48 335.61 627.74 499.79
49 355.79 625.20 499.79
50 376.31 622.75 499.79
51 396.55 620.52 499.79
52 416.76 617.75 499.79
53 437.36 613.52 499.79
54 457.59 610.63 499.79
55 479.13 609.37 499.79
56 501.50 610.01 499.79
57 524.05 613.06 499.79
58 546.28 617.01 499.79
59 568.04 620.17 499.79
60 589.48 622.26 499.79
61 610.75 623.99 499.79
62 632.33 625.85 499.79
63 653.58 627.31 499.79
64 674.33 627.48 499.79
65 694.85 629.37 499.79
66 24.87 614.14 499.79
67 44.96 613.66 499.79
68 65.31 613.67 499.79
69 85.37 613.25 499.79
70 105.79 612.70 499.79
71 125.76 611.56 499.79
72 146.08 611.78 499.79
73 166.18 612.23 499.79
74 186.61 612.65 499.79
75 207.72 615.76 499.79
76 228.84 614.77 499.79
77 250.26 614.16 499.79
78 271.95 612.78 499.79
79 293.58 611.08 499.79
80 315.13 609.12 499.79
81 335.61 606.41 499.79
82 356.39 604.53 499.79
83 376.80 602.13 499.79
84 397.14 599.93 499.79
85 417.39 597.33 499.79
86 437.21 592.98 499.79
87 458.31 591.15 499.79
88 480.09 590.50 499.79
89 502.55 591.70 499.79
90 524.94 594.73 499.79
91 546.96 598.32 499.79
92 568.62 601.14 499.79
93 589.81 602.79 499.79
94 611.42 604.97 499.79
95 632.79 606.55 499.79
96 653.49 607.31 499.79
97 674.18 607.42 499.79
98 694.52 609.06 499.79
99 25.13 593.66 499.79
100 45.41 593.42 499.79
101 65.52 593.15 499.79
102 85.92 593.05 499.79
103 105.96 592.14 499.79
104 126.28 591.45 499.79
105 146.29 591.24 499.79
106 166.65 591.98 499.79
107 187.10 592.25 499.79
108 207.78 594.57 499.79
109 229.18 593.96 499.79
110 250.74 593.27 499.79
111 272.33 592.01 499.79
112 294.18 590.42 499.79
113 315.04 587.87 499.79
114 336.00 585.83 499.79
115 356.87 583.91 499.79
116 377.20 581.78 499.79
117 397.70 579.78 499.79
118 417.16 576.68 499.79
119 437.86 573.43 499.79
120 459.05 571.87 499.79
121 481.12 571.88 499.79
122 503.46 573.25 499.79
123 525.72 576.19 499.79
124 547.63 579.53 499.79
125 568.95 581.73 499.79
126 590.53 583.80 499.79
127 611.94 585.81 499.79
128 632.77 586.64 499.79
129 653.35 587.22 499.79
130 673.88 587.23 499.79
131 694.27 588.84 499.79
132 25.60 573.38 499.79
133 45.61 572.91 499.79
134 66.04 572.94 499.79
135 86.13 572.46 499.79
136 106.46 571.93 499.79
137 126.50 570.88 499.79
138 146.80 571.01 499.79
139 167.14 571.50 499.79
140 187.36 571.31 499.79
141 208.39 573.70 499.79
142 229.56 573.11 499.79
143 251.16 572.49 499.79
144 272.97 571.32 499.79
145 294.07 569.18 499.79
146 315.34 567.27 499.79
147 336.37 565.33 499.79
148 357.08 563.57 499.79
149 377.70 561.66 499.79
150 397.43 559.10 499.79
151 417.76 557.04 499.79
152 438.59 554.07 499.79
153 460.08 553.03 499.79
154 482.12 553.37 499.79
155 504.35 554.72 499.79
156 526.44 557.53 499.79
157 548.05 560.34 499.79
158 569.62 562.70 499.79
159 591.13 564.76 499.79
160 612.06 566.05 499.79
161 632.65 566.56 499.79
162 653.04 566.96 499.79
163 673.68 567.13 499.79
164 693.92 568.46 499.79
165 25.77 552.91 499.79
166 46.15 552.71 499.79
167 66.25 552.35 499.79
168 86.63 552.16 499.79
169 106.73 551.28 499.79
170 126.95 550.73 499.79
171 147.20 550.66 499.79
172 167.37 550.83 499.79
173 187.73 550.89 499.79
174 208.92 552.91 499.79
175 230.06 552.35 499.79
176 251.78 551.78 499.79
177 273.02 550.10 499.79
178 294.42 548.50 499.79
179 315.69 546.67 499.79
180 336.79 544.80 499.79
181 357.66 543.16 499.79
182 377.64 540.79 499.79
183 398.00 539.20 499.79
184 418.55 537.47 499.79
185 439.53 534.83 499.79
186 461.11 534.21 499.79
187 483.06 534.67 499.79
188 505.27 536.19 499.79
189 527.03 538.63 499.79
190 548.59 541.25 499.79
191 570.22 543.64 499.79
192 591.40 545.20 499.79
193 611.97 545.95 499.79
194 632.32 546.26 499.79
195 652.82 546.79 499.79
196 673.33 546.87 499.79
197 693.51 548.03 499.79
198 26.29 532.75 499.79
199 46.38 532.19 499.79
200 66.76 532.07 499.79
201 86.88 531.63 499.79
202 107.11 531.13 499.79
203 127.33 530.38 499.79
204 147.45 530.13 499.79
205 167.78 530.46 499.79
206 188.15 530.49 499.79
207 209.20 532.27 499.79
208 230.63 531.79 499.79
209 251.85 530.56 499.79
210 273.54 529.28 499.79
211 294.93 527.71 499.79
212 316.26 525.94 499.79
213 337.41 524.21 499.79
214 357.66 522.12 499.79
215 378.31 520.44 499.79
216 398.86 519.10 499.79
217 419.51 517.78 499.79
218 440.61 515.60 499.79
219 462.10 515.29 499.79
220 483.92 515.87 499.79
221 505.82 517.19 499.79
222 527.63 519.63 499.79
223 549.32 522.39 499.79
224 570.58 524.26 499.79
225 591.36 525.24 499.79
226 611.70 525.70 499.79
227 632.10 526.10 499.79
228 652.50 526.52 499.79
229 672.84 526.47 499.79
230 693.09 527.63 499.79
231 26.62 512.10 499.79
232 46.93 511.84 499.79
233 67.06 511.46 499.79
234 87.34 511.24 499.79
235 107.54 510.59 499.79
236 127.71 509.86 499.79
237 147.83 509.85 499.79
238 168.17 510.13 499.79
239 188.48 510.15 499.79
240 209.61 511.61 499.79
241 230.83 510.60 499.79
242 252.30 509.72 499.79
243 274.03 508.34 499.79
244 295.59 506.77 499.79
245 317.07 505.02 499.79
246 337.60 502.79 499.79
247 358.49 501.41 499.79
248 379.20 500.00 499.79
249 399.87 498.86 499.79
250 420.55 497.59 499.79
251 441.55 496.01 499.79
252 462.94 496.08 499.79
253 484.53 496.64 499.79
254 506.38 498.10 499.79
255 528.24 500.66 499.79
256 549.75 503.06 499.79
257 570.69 504.42 499.79
258 590.95 504.77 499.79
259 611.41 505.36 499.79
260 631.79 505.75 499.79
261 651.97 505.98 499.79
262 672.36 506.03 499.79
263 692.64 507.14 499.79
264 27.10 491.83 499.79
265 47.16 491.36 499.79
266 67.49 491.14 499.79
267 87.67 490.82 499.79
268 107.91 490.21 499.79
269 128.04 489.54 499.79
270 148.27 489.54 499.79
271 168.52 489.74 499.79
272 188.95 489.71 499.79
273 209.75 490.53 499.79
274 231.21 489.81 499.79
275 252.81 488.86 499.79
276 274.34 487.50 499.79
277 296.14 486.03 499.79
278 317.04 483.82 499.79
279 338.10 482.30 499.79
280 359.28 481.07 499.79
281 379.94 479.99 499.79
282 400.82 479.07 499.79
283 421.39 477.95 499.79
284 442.39 476.83 499.79
285 463.54 476.76 499.79
286 485.14 477.53 499.79
287 507.00 479.18 499.79
288 528.80 481.64 499.79
289 549.99 483.50 499.79
290 570.36 484.09 499.79
291 590.80 484.62 499.79
292 611.12 485.11 499.79
293 631.30 485.29 499.79
294 651.54 485.59 499.79
295 672.01 485.78 499.79
296 692.20 486.70 499.79
297 27.35 471.33 499.79
298 47.58 471.08 499.79
299 67.80 470.72 499.79
300 88.08 470.42 499.79
301 108.24 469.84 499.79
302 128.41 469.29 499.79
303 148.65 469.17 499.79
304 168.98 469.23 499.79
305 189.28 468.84 499.79
306 210.40 469.74 499.79
307 231.62 468.99 499.79
308 253.17 468.04 499.79
309 274.92 466.76 499.79
310 296.07 464.86 499.79
311 317.44 463.31 499.79
312 338.77 462.09 499.79
313 359.82 461.06 499.79
314 380.80 460.25 499.79
315 401.60 459.40 499.79
316 422.24 458.65 499.79
317 443.11 457.56 499.79
318 464.23 457.58 499.79
319 485.83 458.62 499.79
320 507.67 460.29 499.79
321 529.11 462.27 499.79
322 549.76 463.34 499.79
323 570.18 463.93 499.79
324 590.52 464.40 499.79
325 610.66 464.66 499.79
326 630.86 464.87 499.79
327 651.18 465.27 499.79
328 671.60 465.47 499.79
329 691.76 466.23 499.79
330 27.74 451.07 499.79
331 47.90 450.66 499.79
332 68.20 450.32 499.79
333 88.42 449.96 499.79
334 108.70 449.37 499.79
335 128.78 448.95 499.79
336 149.06 448.78 499.79
337 169.29 448.64 499.79
338 189.69 448.47 499.79
339 210.97 449.02 499.79
340 232.06 448.19 499.79
341 253.73 447.26 499.79
342 275.04 445.59 499.79
343 296.53 444.26 499.79
344 318.09 442.98 499.79
345 339.52 441.87 499.79
346 360.75 441.02 499.79
347 381.77 440.38 499.79
348 402.44 439.83 499.79
349 423.09 439.21 499.79
350 443.76 438.08 499.79
351 464.95 438.42 499.79
352 486.55 439.63 499.79
353 508.22 441.21 499.79
354 529.08 442.40 499.79
355 549.50 443.11 499.79
356 569.85 443.61 499.79
357 590.09 443.99 499.79
358 610.19 444.15 499.79
359 630.46 444.50 499.79
360 650.75 444.88 499.79
361 671.18 445.12 499.79
362 691.41 445.88 499.79
363 28.07 430.66 499.79
364 48.33 430.33 499.79
365 68.54 429.88 499.79
366 88.85 429.61 499.79
367 108.94 429.08 499.79
368 129.19 428.64 499.79
369 149.36 428.30 499.79
370 169.73 428.31 499.79
371 190.14 428.11 499.79
372 211.17 428.34 499.79
373 232.58 427.55 499.79
374 253.91 426.16 499.79
375 275.44 424.92 499.79
376 297.33 423.74 499.79
377 318.98 422.56 499.79
378 340.49 421.64 499.79
379 361.79 420.97 499.79
380 382.74 420.35 499.79
381 403.41 419.87 499.79
382 423.82 419.29 499.79
383 444.52 418.55 499.79
384 465.71 419.24 499.79
385 487.08 420.40 499.79
386 508.17 421.37 499.79
387 528.89 422.28 499.79
388 549.27 422.90 499.79
389 569.41 423.19 499.79
390 589.61 423.53 499.79
391 609.84 423.83 499.79
392 630.04 424.13 499.79
393 650.34 424.52 499.79
394 670.77 424.80 499.79
395 691.02 425.48 499.79
396 28.50 410.32 499.79
397 48.68 409.90 499.79
398 68.96 409.56 499.79
399 89.14 409.17 499.79
400 109.36 408.69 499.79
401 129.56 408.28 499.79
402 149.72 408.14 499.79
403 170.09 408.10 499.79
404 190.36 407.76 499.79
405 211.45 407.72 499.79
406 232.76 406.59 499.79
407 254.22 405.44 499.79
408 276.20 404.29 499.79
409 298.25 403.19 499.79
410 320.06 402.14 499.79
411 341.63 401.38 499.79
412 362.83 400.74 499.79
413 383.68 400.21 499.79
414 404.21 399.54 499.79
415 424.53 399.03 499.79
416 445.24 398.93 499.79
417 466.28 399.83 499.79
418 487.19 400.59 499.79
419 508.00 401.33 499.79
420 528.58 402.05 499.79
421 548.83 402.47 499.79
422 569.03 402.83 499.79
423 589.15 403.07 499.79
424 609.41 403.41 499.79
425 629.68 403.78 499.79
426 649.95 404.17 499.79
427 670.36 404.46 499.79
428 690.62 405.09 499.79
429 28.83 389.92 499.79
430 49.10 389.57 499.79
431 69.28 389.08 499.79
432 89.55 388.75 499.79
433 109.77 388.36 499.79
434 129.91 388.01 499.79
435 150.17 387.84 499.79
436 170.41 387.61 499.79
437 190.75 387.26 499.79
438 211.67 386.81 499.79
439 233.11 385.81 499.79
440 254.91 384.75 499.79
441 277.09 383.78 499.79
442 299.17 382.74 499.79
443 321.12 381.87 499.79
444 342.60 381.13 499.79
445 363.73 380.52 499.79
446 384.43 379.88 499.79
447 404.91 379.37 499.79
448 425.16 379.06 499.79
449 445.74 379.30 499.79
450 466.41 379.95 499.79
451 487.03 380.49 499.79
452 507.66 381.09 499.79
453 528.12 381.65 499.79
454 548.36 382.00 499.79
455 568.57 382.37 499.79
456 588.78 382.69 499.79
457 609.00 383.01 499.79
458 629.28 383.41 499.79
459 649.54 383.76 499.79
460 669.96 384.12 499.79
461 690.21 384.68 499.79
462 29.28 369.56 499.79
463 49.44 369.11 499.79
464 69.65 368.79 499.79
465 89.92 368.47 499.79
466 110.11 368.02 499.79
467 130.33 367.71 499.79
468 150.54 367.39 499.79
469 170.81 367.05 499.79
470 191.12 366.50 499.79
471 212.34 365.97 499.79
472 233.81 365.07 499.79
473 255.86 364.29 499.79
474 277.99 363.32 499.79
475 300.20 362.45 499.79
476 322.03 361.58 499.79
477 343.47 360.86 499.79
478 364.43 360.17 499.79
479 385.12 359.69 499.79
480 405.49 359.30 499.79
481 425.72 359.27 499.79
482 445.96 359.44 499.79
483 466.30 359.82 499.79
484 486.70 360.20 499.79
485 507.17 360.68 499.79
486 527.57 361.13 499.79
487 547.90 361.54 499.79
488 568.13 361.92 499.79
489 588.35 362.26 499.79
490 608.62 362.64 499.79
491 628.88 363.03 499.79
492 649.17 363.43 499.79
493 669.53 363.77 499.79
494 689.76 364.23 499.79
495 29.66 349.05 499.79
496 49.84 348.71 499.79
497 70.10 348.34 499.79
498 90.34 347.95 499.79
499 110.56 347.61 499.79
500 130.74 347.22 499.79
501 150.96 346.83 499.79
502 171.20 346.35 499.79
503 191.73 345.98 499.79
504 213.16 345.29 499.79
505 234.85 344.61 499.79
506 256.89 343.75 499.79
507 279.14 342.90 499.79
508 301.28 341.99 499.79
509 323.01 341.12 499.79
510 344.26 340.34 499.79
511 365.20 339.76 499.79
512 385.78 339.31 499.79
513 406.09 339.07 499.79
514 426.00 338.96 499.79
515 445.93 339.14 499.79
516 466.02 339.41 499.79
517 486.28 339.75 499.79
518 506.64 340.15 499.79
519 527.02 340.57 499.79
520 547.38 341.01 499.79
521 567.65 341.38 499.79
522 587.90 341.76 499.79
523 608.17 342.14 499.79
524 628.42 342.53 499.79
525 648.70 342.92 499.79
526 669.11 343.36 499.79
527 689.30 343.71 499.79
528 30.01 328.69 499.79
529 50.18 328.35 499.79
530 70.48 327.97 499.79
531 90.72 327.58 499.79
532 110.93 327.21 499.79
533 131.11 326.85 499.79
534 151.33 326.48 499.79
535 171.57 326.10 499.79
536 192.17 325.68 499.79
537 213.83 325.01 499.79
538 235.62 324.28 499.79
539 257.75 323.43 499.79
540 280.07 322.54 499.79
541 302.21 321.61 499.79
542 323.85 320.76 499.79
543 344.93 320.05 499.79
544 365.76 319.48 499.79
545 386.25 319.02 499.79
546 406.46 318.65 499.79
547 426.14 318.50 499.79
548 445.73 318.72 499.79
549 465.75 319.11 499.79
550 485.94 319.48 499.79
551 506.24 319.84 499.79
552 526.60 320.24 499.79
553 546.93 320.64 499.79
554 567.27 321.05 499.79
555 587.53 321.42 499.79
556 607.78 321.79 499.79
557 628.04 322.17 499.79
558 648.30 322.56 499.79
559 668.66 323.01 499.79
560 688.95 323.36 499.79
